Variables= "<i>t(<greek>m</greek>s)</i>","Radius(<i><greek>m</greek>m</i>)"
ZONE T=R_Vacuum_R4e-07_1P0.00_2P0.00 
F = POINT
0.000e+00 4.000000e-01
2.102e-07 4.000000e-01
4.205e-07 4.000000e-01
6.307e-07 4.000000e-01
8.409e-07 4.000000e-01
1.892e-06 4.000000e-01
2.943e-06 4.000000e-01
3.994e-06 4.000000e-01
5.046e-06 4.000000e-01
1.030e-05 4.000000e-01
1.556e-05 4.000000e-01
2.081e-05 3.999999e-01
2.607e-05 3.999999e-01
5.235e-05 3.999997e-01
7.863e-05 3.999993e-01
1.049e-04 3.999987e-01
1.312e-04 3.999979e-01
2.626e-04 3.999918e-01
3.940e-04 3.999815e-01
5.254e-04 3.999670e-01
6.568e-04 3.999485e-01
1.314e-03 3.997937e-01
1.971e-03 3.995356e-01
2.628e-03 3.991739e-01
3.285e-03 3.987081e-01
4.220e-03 3.978644e-01
5.156e-03 3.968069e-01
6.091e-03 3.955334e-01
7.027e-03 3.940411e-01
7.963e-03 3.923267e-01
8.898e-03 3.903862e-01
9.834e-03 3.882151e-01
1.077e-02 3.858082e-01
1.170e-02 3.831595e-01
1.264e-02 3.802624e-01
1.358e-02 3.771091e-01
1.451e-02 3.736909e-01
1.545e-02 3.699980e-01
1.638e-02 3.660194e-01
1.732e-02 3.617422e-01
1.825e-02 3.571522e-01
1.919e-02 3.522328e-01
2.012e-02 3.469654e-01
2.106e-02 3.413283e-01
2.200e-02 3.352963e-01
2.293e-02 3.288401e-01
2.387e-02 3.219257e-01
2.480e-02 3.145122e-01
2.574e-02 3.065503e-01
2.667e-02 2.979801e-01
2.761e-02 2.887305e-01
2.854e-02 2.787090e-01
2.948e-02 2.677956e-01
3.042e-02 2.558288e-01
3.135e-02 2.426170e-01
3.229e-02 2.278526e-01
3.322e-02 2.110656e-01
3.359e-02 2.037198e-01
3.396e-02 1.958869e-01
3.433e-02 1.874828e-01
3.470e-02 1.783947e-01
3.507e-02 1.684601e-01
3.544e-02 1.574959e-01
3.582e-02 1.451597e-01
3.619e-02 1.308719e-01
3.626e-02 1.275724e-01
3.634e-02 1.241353e-01
3.642e-02 1.205443e-01
3.649e-02 1.167802e-01
3.657e-02 1.128191e-01
3.665e-02 1.086329e-01
3.673e-02 1.041842e-01
3.680e-02 9.942407e-02
3.684e-02 9.690347e-02
3.688e-02 9.427903e-02
3.692e-02 9.153862e-02
3.696e-02 8.866753e-02
3.700e-02 8.564777e-02
3.704e-02 8.245791e-02
3.707e-02 7.906964e-02
3.711e-02 7.544581e-02
3.713e-02 7.352808e-02
3.715e-02 7.153179e-02
3.717e-02 6.944773e-02
3.719e-02 6.726476e-02
3.721e-02 6.496920e-02
3.723e-02 6.254482e-02
3.725e-02 5.997010e-02
3.727e-02 5.721686e-02
3.728e-02 5.576020e-02
3.729e-02 5.424399e-02
3.730e-02 5.266123e-02
3.731e-02 5.100346e-02
3.732e-02 4.926030e-02
3.733e-02 4.741941e-02
3.734e-02 4.546444e-02
3.735e-02 4.337397e-02
3.735e-02 4.226803e-02
3.735e-02 4.111687e-02
3.736e-02 3.991518e-02
3.736e-02 3.865651e-02
3.737e-02 3.733297e-02
3.737e-02 3.593516e-02
3.738e-02 3.445064e-02
3.738e-02 3.286308e-02
3.739e-02 3.202314e-02
3.739e-02 3.114881e-02
3.739e-02 3.023601e-02
3.739e-02 2.927983e-02
3.740e-02 2.827425e-02
3.740e-02 2.721207e-02
3.740e-02 2.608379e-02
3.740e-02 2.487690e-02
3.740e-02 2.423825e-02
3.741e-02 2.357332e-02
3.741e-02 2.287900e-02
3.741e-02 2.215152e-02
3.741e-02 2.138622e-02
3.741e-02 2.057758e-02
3.741e-02 1.971827e-02
3.741e-02 1.879862e-02
3.741e-02 1.831177e-02
3.741e-02 1.780471e-02
3.741e-02 1.727501e-02
3.742e-02 1.671973e-02
3.742e-02 1.613524e-02
3.742e-02 1.551724e-02
3.742e-02 1.485996e-02
3.742e-02 1.415578e-02
3.742e-02 1.378273e-02
3.742e-02 1.339391e-02
3.742e-02 1.298737e-02
3.742e-02 1.256078e-02
3.742e-02 1.211121e-02
3.742e-02 1.163519e-02
3.742e-02 1.112803e-02
3.742e-02 1.058350e-02
3.742e-02 1.029472e-02
3.742e-02 9.993271e-03
3.742e-02 9.677527e-03
3.742e-02 9.345505e-03
3.742e-02 8.994722e-03
3.742e-02 8.622204e-03
3.742e-02 8.223860e-03
3.742e-02 7.794148e-03
3.742e-02 7.566042e-03
3.742e-02 7.327141e-03
3.742e-02 7.075952e-03
3.742e-02 6.810602e-03
3.742e-02 6.528695e-03
3.742e-02 6.227348e-03
3.742e-02 5.902405e-03
3.742e-02 5.548005e-03
3.742e-02 5.360035e-03
3.742e-02 5.161646e-03
3.742e-02 4.951114e-03
3.742e-02 4.726187e-03
3.742e-02 4.483765e-03
3.742e-02 4.220199e-03
3.742e-02 3.929377e-03
3.742e-02 3.601668e-03
3.742e-02 3.430179e-03
3.742e-02 3.244902e-03
3.742e-02 3.042262e-03
3.742e-02 2.816864e-03
3.742e-02 2.654990e-03
3.742e-02 2.477158e-03
3.742e-02 2.277860e-03
3.742e-02 2.047705e-03
